序号,连胜后额外消耗卡魂的参数
id,fParam
int,float
0,1.5
1,2.25
2,3.375
3,5.0625
4,7.59375
5,11.390625
6,17.0859375
7,25.62890625
8,38.44335938
9,57.66503906
10,86.49755859
11,129.7463379
12,194.6195068
13,291.9292603
14,437.8938904
15,656.8408356
16,985.2612534
17,1477.89188
18,2216.83782
19,3325.25673
20,4987.885095
21,7481.827643
22,11222.74146
23,16834.1122
24,25251.16829
25,37876.75244
26,56815.12866
27,85222.69299
28,127834.0395
29,191751.0592
30,287626.5888
